Sensor Model:   RX-202A-AA-0,05B
Serial Number:  U04184
Data Format:    4      (Log Ohms/Kelvin)
SetPoint Limit: 40,0      (Kelvin)
Temperature coefficient:  1 (Negative)
Number of Breakpoints:   131

No,   Units      Temperature (K)
1	3,34929	40,000
2	3,35051	38,600
3	3,35169	37,300
4	3,35292	36,000
5	3,35422	34,700
6	3,35547	33,500
7	3,35679	32,300
8	3,35817	31,100
9	3,35962	29,900
10	3,36116	28,700
11	3,36264	27,600
12	3,36420	26,500
13	3,36585	25,400
14	3,36760	24,300
15	3,36928	23,300
16	3,37106	22,300
17	3,37294	21,300
18	3,37495	20,300
19	3,37644	19,600
20	3,37777	19,000
21	3,37915	18,400
22	3,38048	17,850
23	3,38186	17,300
24	3,38329	16,750
25	3,38479	16,200
26	3,38636	15,650
27	3,38800	15,100
28	3,38956	14,600
29	3,39120	14,100
30	3,39291	13,600
31	3,39470	13,100
32	3,39658	12,600
33	3,39857	12,100
34	3,40045	11,650
35	3,40242	11,200
36	3,40449	10,750
37	3,40669	10,300
38	3,40901	9,850
39	3,41119	9,450
40	3,41350	9,050
41	3,41595	8,650
42	3,41856	8,250
43	3,42099	7,900
44	3,42358	7,550
45	3,42634	7,200
46	3,42931	6,850
47	3,43249	6,500
48	3,43593	6,150
49	3,43922	5,840
50	3,44265	5,540
51	3,44638	5,240
52	3,45017	4,960
53	3,45430	4,680
54	3,45848	4,420
55	3,46305	4,160
56	3,46710	3,950
57	3,47061	3,780
58	3,47437	3,610
59	3,47841	3,440
60	3,48250	3,280
61	3,48691	3,120
62	3,49138	2,970
63	3,49620	2,820
64	3,50143	2,670
65	3,50674	2,530
66	3,51252	2,390
67	3,51839	2,260
68	3,52479	2,130
69	3,53184	2,000
70	3,53902	1,880
71	3,54695	1,760
72	3,55502	1,650
73	3,56396	1,540
74	3,57395	1,430
75	3,58416	1,330
76	3,59558	1,230
77	3,60327	1,170
78	3,60867	1,130
79	3,61439	1,090
80	3,62046	1,050
81	3,62690	1,010
82	3,63378	0,970
83	3,64112	0,930
84	3,64897	0,890
85	3,65727	0,850
86	3,66495	0,815
87	3,67309	0,780
88	3,68187	0,745
89	3,69135	0,710
90	3,70158	0,675
91	3,71103	0,645
92	3,72114	0,615
93	3,73206	0,585
94	3,74388	0,555
95	3,75673	0,525
96	3,76600	0,505
97	3,77526	0,486
98	3,78564	0,466
99	3,79559	0,448
100	3,80615	0,430
101	3,81739	0,412
102	3,82937	0,394
103	3,84221	0,376
104	3,85597	0,358
105	3,86911	0,342
106	3,88315	0,326
107	3,89825	0,310
108	3,91454	0,294
109	3,93105	0,279
110	3,94893	0,264
111	3,96707	0,250
112	3,98678	0,236
113	4,00839	0,222
114	4,03044	0,209
115	4,05275	0,197
116	4,07722	0,185
117	4,10423	0,173
118	4,13415	0,161
119	4,16744	0,149
120	4,20139	0,138
121	4,23907	0,127
122	4,27740	0,117
123	4,31592	0,108
124	4,36226	0,099
125	4,40793	0,091
126	4,45504	0,084
127	4,51083	0,077
128	4,61455	0,066
129	4,71856	0,056
130	4,78059	0,051
131	4,78922	0,050