Sensor Model:   RX-102B-CB-0.02B
Serial Number:  U02453
Data Format:    4      (Log Ohms/Kelvin)
SetPoint Limit: 40.0      (Kelvin)
Temperature coefficient:  1 (Negative)
Number of Breakpoints:   118

No.   Units      Temperature (K)

  1  3.07326        40.000
  2  3.07592        37.900
  3  3.07862        35.900
  4  3.08135        34.000
  5  3.08425        32.100
  6  3.08734        30.200
  7  3.09047        28.400
  8  3.09363        26.700
  9  3.09701        25.000
 10  3.10063        23.300
 11  3.10430        21.700
 12  3.10825        20.100
 13  3.10853        20.000
 14  3.11010        19.400
 15  3.11199        18.700
 16  3.11382        18.050
 17  3.11570        17.400
 18  3.11766        16.750
 19  3.11969        16.100
 20  3.12180        15.450
 21  3.12399        14.800
 22  3.12609        14.200
 23  3.12827        13.600
 24  3.13053        13.000
 25  3.13289        12.400
 26  3.13535        11.800
 27  3.13770        11.250
 28  3.14015        10.700
 29  3.14270        10.150
 30  3.14537         9.600
 31  3.14791         9.100
 32  3.15057         8.600
 33  3.15336         8.100
 34  3.15600         7.650
 35  3.15879         7.200
 36  3.16141         6.800
 37  3.16418         6.400
 38  3.16728         5.980
 39  3.17014         5.620
 40  3.17304         5.280
 41  3.17597         4.960
 42  3.17894         4.660
 43  3.18239         4.340
 44  3.18607         4.020
 45  3.18845         3.830
 46  3.19111         3.630
 47  3.19367         3.450
 48  3.19639         3.270
 49  3.19915         3.100
 50  3.20210         2.930
 51  3.20509         2.770
 52  3.20810         2.620
 53  3.21135         2.470
 54  3.21487         2.320
 55  3.21845         2.180
 56  3.22207         2.050
 57  3.22601         1.920
 58  3.23035         1.790
 59  3.23477         1.670
 60  3.23964         1.550
 61  3.24461         1.440
 62  3.25013         1.330
 63  3.25632         1.220
 64  3.25914         1.175
 65  3.26137         1.140
 66  3.26439         1.095
 67  3.26759         1.050
 68  3.27097         1.005
 69  3.27456         0.960
 70  3.27794         0.920
 71  3.28150         0.880
 72  3.28529         0.840
 73  3.28931         0.800
 74  3.29359         0.760
 75  3.29759         0.725
 76  3.30184         0.690
 77  3.30639         0.655
 78  3.31127         0.620
 79  3.31654         0.585
 80  3.32143         0.555
 81  3.32669         0.525
 82  3.33143         0.500
 83  3.33547         0.480
 84  3.33976         0.460
 85  3.34433         0.440
 86  3.34920         0.420
 87  3.35439         0.400
 88  3.35993         0.380
 89  3.36584         0.360
 90  3.37274         0.338
 91  3.37934         0.318
 92  3.38497         0.302
 93  3.39142         0.285
 94  3.39832         0.268
 95  3.40533         0.252
 96  3.41241         0.237
 97  3.42006         0.222
 98  3.42783         0.208
 99  3.43626         0.194
100  3.44484         0.181
101  3.45421         0.168
102  3.46375         0.156
103  3.47423         0.144
104  3.48586         0.132
105  3.49776         0.121
106  3.51102         0.110
107  3.52602         0.099
108  3.54067         0.090
109  3.55639         0.081
110  3.57335         0.072
111  3.59178         0.064
112  3.61193         0.057
113  3.63405         0.050
114  3.66013         0.043
115  3.69316         0.035
116  3.72961         0.028
117  3.76172         0.023
118  3.78785         0.020
