Sensor Model:   RX-102B-CB-0.02B
Serial Number:  U03411
Data Format:    4      (Log Ohms/Kelvin)
SetPoint Limit: 40.0      (Kelvin)
Temperature coefficient:  1 (Negative)
Number of Breakpoints:   119

No.   Units      Temperature (K)

  1  3.06333        40.000
  2  3.06587        37.900
  3  3.06844        35.900
  4  3.07103        34.000
  5  3.07379        32.100
  6  3.07658        30.300
  7  3.07955        28.500
  8  3.08274        26.700
  9  3.08597        25.000
 10  3.08924        23.400
 11  3.09274        21.800
 12  3.09652        20.200
 13  3.09717        19.950
 14  3.09829        19.500
 15  3.09998        18.850
 16  3.10172        18.200
 17  3.10352        17.550
 18  3.10539        16.900
 19  3.10734        16.250
 20  3.10935        15.600
 21  3.11145        14.950
 22  3.11346        14.350
 23  3.11555        13.750
 24  3.11773        13.150
 25  3.11999        12.550
 26  3.12235        11.950
 27  3.12461        11.400
 28  3.12695        10.850
 29  3.12941        10.300
 30  3.13197         9.750
 31  3.13442         9.250
 32  3.13697         8.750
 33  3.13965         8.250
 34  3.14219         7.800
 35  3.14486         7.350
 36  3.14769         6.900
 37  3.15035         6.500
 38  3.15317         6.100
 39  3.15589         5.740
 40  3.15862         5.400
 41  3.16138         5.080
 42  3.16415         4.780
 43  3.16715         4.480
 44  3.17060         4.160
 45  3.17328         3.930
 46  3.17577         3.730
 47  3.17829         3.540
 48  3.18084         3.360
 49  3.18356         3.180
 50  3.18631         3.010
 51  3.18909         2.850
 52  3.19207         2.690
 53  3.19529         2.530
 54  3.19856         2.380
 55  3.20187         2.240
 56  3.20546         2.100
 57  3.20910         1.970
 58  3.21307         1.840
 59  3.21744         1.710
 60  3.22191         1.590
 61  3.22642         1.480
 62  3.23142         1.370
 63  3.23699         1.260
 64  3.24094         1.190
 65  3.24362         1.145
 66  3.24644         1.100
 67  3.24943         1.055
 68  3.25259         1.010
 69  3.25556         0.970
 70  3.25869         0.930
 71  3.26201         0.890
 72  3.26552         0.850
 73  3.26926         0.810
 74  3.27325         0.770
 75  3.27697         0.735
 76  3.28091         0.700
 77  3.28512         0.665
 78  3.28963         0.630
 79  3.29447         0.595
 80  3.29969         0.560
 81  3.30454         0.530
 82  3.30885         0.505
 83  3.31269         0.484
 84  3.31656         0.464
 85  3.32065         0.444
 86  3.32499         0.424
 87  3.32961         0.404
 88  3.33453         0.384
 89  3.33926         0.366
 90  3.34429         0.348
 91  3.34965         0.330
 92  3.35540         0.312
 93  3.36156         0.294
 94  3.36744         0.278
 95  3.37375         0.262
 96  3.38055         0.246
 97  3.38745         0.231
 98  3.39491         0.216
 99  3.40248         0.202
100  3.41071         0.188
101  3.41906         0.175
102  3.42819         0.162
103  3.43746         0.150
104  3.44764         0.138
105  3.45896         0.126
106  3.47055         0.115
107  3.48229         0.105
108  3.49542         0.095
109  3.50950         0.086
110  3.52463         0.077
111  3.54092         0.068
112  3.55851         0.060
113  3.57754         0.053
114  3.59822         0.046
115  3.62089         0.039
116  3.64612         0.033
117  3.67222         0.028
118  3.70201         0.024
119  3.73244         0.020
